<Actel_Data_File>
    <format name="NVM File" version="01.00.00"/>
    <header>
        <die>
            MPFS025T
        </die>
        <family>
            PolarFireSoC
        </family>
        <module>
            snvm
        </module>
        <package>
            FCVG484
        </package>
        <version>
            2023.2.0.8
        </version>
    </header>
    <nvm>
        <region name="INIT_STAGE_2_SNVM_CLIENT" address="0x000000" retrieveAddressFromFile="false" size="1708" format="HEX" type="PlainText NonAuthenticated" wordSize="8" numberWords="1708" memFile="designer/DEFAULT_6BA5ED31DBDDB144872513/DEFAULT_6BA5ED31DBDDB144872513_init_stage_2_snvm.mem" memType="Microsemi Binary 32-bit" memFileTimeStamp="" clientType="public" program="true">
            <write_protect/>
            <fabric_accessible/>
            <fabric_accessible_as_rom/>
            <mss_accessible/>
            <mss_accessible_as_rom/>
            020006c01100e600020200b008000501020006c003010000020200b00000
            0501020006c003010000020200b000000500020006c003010000020200b0
            00300401020006c003010000020200b000300400020006c02f0000000202
            00b04c100401020006c02f000000020200b04c200401020006c006000000
            020200b078100401020006c006000000020200b078200401020006c00300
            0000020200b06c100400020006c003000000020200b06c200400020006c0
            02001100020200b014600003020006c000001000020200b0146000030200
            06c00000018c020200b0a4410003020006c000000000020200b0e0400003
            020006c001020000020200b004000502020006c00f001088020200b00001
            0502020006c000080000020200b008010502020006c000040803020200b0
            0c000502020006c006000000020200b008000502020006c0120000000202
            00b010100400020006c0001e0000020200b058100400020006c045000000
            020200b034100401020006c032020000020200b040100401020006c00000
            0000020200b0c0100401020006c000000011020200b09c100401020006c0
            10010000020200b080100401020006c000000000020200b0900105020200
            06c015000000020200b008100401020006c04f010000020200b00c100401
            020006c015000000020200b010100401020006c000000000020200b01410
            0401020006c0004f0000020200b018100401020006c001320100020200b0
            e0100401020006c000000000020200b0dc100401020006c016073fff0202
            00b0d0100401020006c01d490101020200b0d4100401020006c010004000
            020200b0d8100401020006c001000000020200b024100401020006c00100
            0000020200b02c100401020006c0b7000000020200b030100401020006c0
            41000000020200b034100401020006c0e8030000020200b0381004010200
            06c032020000020200b040100401020006c000000000020200b0c0100401
            020006c000000009020200b09c100401020006c00a241b00020200b0a410
            0401020006c003021b00020200b0ac100401020006c0141b3b00020200b0
            b0100401020006c00d000000020200b0a0100401020006c0000000000202
            00b098100401020006c000730000020200b090100401020006c00f001088
            020200b000010502020006c000080000020200b008010502020006c00004
            0803020200b00c000502020006c006000000020200b008000502020006c0
            00000000020200b090010502020006c012000000020200b0102004000200
            06c0001e0000020200b058200400020006c045000000020200b034200401
            020006c000000000020200b0c0200401020006c000000011020200b09c20
            0401020006c010010000020200b080200401020006c000003000020200b0
            90010502020006c017000000020200b000480003020006c03d0000000202
            00b000460003020006c004000000020200b010460003020006c016000000
            020200b040460003020006c00c000080020200b0e4400003020006c00000
            0000020200b0ec400003020006c000000000020200b0f0400003020006c0
            aa115615020200b098400003020006c000000406020200b09c4000030200
            06c000000000020200b0a0400003020006c034000080020200b0a8400003
            020006c000140001020200b0c8400003020006c000700080020200b0d440
            0003020006c00f001088020200b000010502020006c000080000020200b0
            08010502020006c006000000020200b008000502020006c00000401f0202
            00b008600003020006c0ffff0000020200b034600003020006c001900000
            020200b004600003020006c0aa115615020200b084600003020006c00000
            0406020200b088600003020006c007000700020200b04c610003020006c0
            00700000020200b0a0600003020006c010000000020200b0a46000030200
            06c0ffff0000020200b02c600003020006c000000000020200b000000501
            020006c000000000020200b000300401020006c000000000020200b00000
            0500020006c000000000020200b000300400020006c03f000000020200b0
            4c100401020006c03f000000020200b04c200401020006c01100e0000202
            00b008000501020006c03e000000020200b04c100401020006c002000000
            020200b078100401020006c011008000020200b008000501020006c03c00
            0000020200b04c100401020006c001000000020200b078100401020006c0
            47030303020200b088100400020006c000000000020200b06c1004000200
            06c047030303020200b088200400020006c000000000020200b06c200400
            020000d0000006c009000000000202b000000000020000d0000000f0
            <crc>
                9869
            </crc>
        </region>
        <region name="INIT_STAGE_1_SNVM_CLIENT" address="0x0000ca" retrieveAddressFromFile="false" size="4344" format="HEX" type="PlainText NonAuthenticated" wordSize="8" numberWords="4344" memFile="designer/DEFAULT_6BA5ED31DBDDB144872513/DEFAULT_6BA5ED31DBDDB144872513_init_stage_1_snvm.mem" memType="Microsemi Binary 32-bit" memFileTimeStamp="" clientType="public" program="true">
            <write_protect/>
            <fabric_accessible/>
            <fabric_accessible_as_rom/>
            <mss_accessible/>
            <mss_accessible_as_rom/>
            000010c032000000010010c032000000000f11c0b80b0000ff3f0c120000
            002000000000000000000000000000000000000000000000000000000000
            000000000000000000000000000000000000000000000000000000000000
            000000000000000000000000000000000000000000000000000000000000
            000000000000000000000000000000000000000000000000000000000000
            000000000000000000000000000000000000000000000000000000000000
            000000000000000000000000000000000000000000000000000000000000
            000000000000000000000000000000000000000000000000000000000000
            000000000000000000000000000000000000000000000000000000000000
            000000000000000000000000000000000000000000000000000000000000
            000000000000000000000000000000000000000000000000000000000000
            000000000000000000000000000000000000000000000000000000000000
            000000000000000000000000000000000000000000000000000000000000
            000000000000000000000000000000000000000000000000000000000000
            000000000000000000000000000000000000000000000000000000000000
            000000000000000000000000000000000000000000000000000000000000
            000000000000000000000000000000000000000000000000000000000000
            000000000000000000000000000000000000000000000000000000000000
            000000000000000000000000000000000000000000000000000000000000
            000000000000000000000000000000000000000000000000000000000000
            000000000000000000000000000000000000000000000000000000000000
            000000000000000000000000000000000000000000000000000000000000
            000000000000000000000000000000000000000000000000000000000000
            000000000000000000000000000000000000000000000000000000000000
            000000000000000000000000000000000000000000000000000000000000
            000000000000000000000000000000000000000000000000000000000000
            000000000000000000000000000000000000000000000000000000000000
            000000000000000000000000000000000000000000000000000000000000
            000000000000000000000000000000000000000000000000000000000000
            000000000000000000000000000000000000000000000000000000000000
            000000000000000000000000000000000000000000000000000000000000
            000000000000000000000000000000000000000000000000000000000000
            000000000000000000000000000000000000000000000000000000000000
            000000000000000000000000000000000000000000000000000000000000
            000000000000000000000000000000000000000000000000000000000000
            000000000000000000000000000000000000000000000000000000000000
            000000000000000000000000000000000000000000000000000000000000
            000000000000000000000000000000000000000000000000000000000000
            000000000000000000000000000000000000000000000000000000000000
            000000000000000000000000000000000000000000000000000000000000
            000000000000000000000000000000000000000000000000000000000000
            000000000000000000000000000000000000000000000000000000000000
            000000000000000000000000000000000000000000000000000000000000
            000000000000000000000000000000000000000000000000000000000000
            000000000000000000000000000000000000000000000000000000000000
            000000000000000000000000000000000000000000000000000000000000
            000000000000000000000000000000000000000000000000000000000000
            000000000000000000000000000000000000000000000000000000000000
            000000000000000000000000000000000000000000000000000000000000
            000000000000000000000000000000000000000000000000000000000000
            000000000000000000000000000000000000000000000000000000000000
            000000000000000000000000000000000000000000000000000000000000
            000000000000000000000000000000000000000000000000000000000000
            000000000000000000000000000000000000000000000000000000000000
            000000000000000000000000000000000000000000000000000000000000
            000000000000000000000000000000000000000000000000000000000000
            000000000000000000000000000000000000000000000000000000000000
            000000000000000000000000000000000000000000000000000000000000
            000000000000000000000000000000000000000000000000000000000000
            000000000000000000000000000000000000000000000000000000000000
            000000000000000000000000000000000000000000000000000000000000
            000000000000000000000000000000000000000000000000000000000000
            000000000000000000000000000000000000000000000000000000000000
            000000000000000000000000000000000000000000000000000000000000
            000000000000000000000000000000000000000000000000000000000000
            000000000000000000000000000000000000000000000000000000000000
            000000000000000000000000000000000000000000000000000000000000
            000000000000000000000000000000000000000000000000000000000000
            000000000000000000000000000000000000000000000000000000000000
            000000000000000000000000000000000000000000000000000000000000
            000000000000000000000000000000000000000000000000000000000000
            000000000000000000000000000000000000000000000000000000000000
            000000000000000000000000000000000000000000000000000000000000
            000000000000000000000000000000000000000000000000000000000000
            000000000000000000000000000000000000000000000000000000000000
            000000000000000000000000000000000000000000000000000000000000
            000000000000000000000000000000000000000000000000000000000000
            000000000000000000000000000000000000000000000000000000000000
            000000000000000000000000000000000000000000000000000000000000
            000000000000000000000000000000000000000000000000000000000000
            000000000000000000000000000000000000000000000000000000000000
            000000000000000000000000000000000000000000000000000000000000
            000000000000000000000000000000000000000000000000000000000000
            000000000000000000000000000000000000000000000000000000000000
            000000000000000000000000000000000000000000000000000000000000
            000000000000000000000000000000000000000000000000000000000000
            000000000000000000000000000000000000000000000000000000000000
            000000000000000000000000000000000000000000000000000000000000
            000000000000000000000000000000000000000000000000000000000000
            000000000000000000000000000000000000000000000000000000000000
            000000000000000000000000000000000000000000000000000000000000
            000000000000000000000000000000000000000000000000000000000000
            000000000000000000000000000000000000000000000000000000000000
            000000000000000000000000000000000000000000000000000000000000
            000000000000000000000000000000000000000000000000000000000000
            000000000000000000000000000000000000000000000000000000000000
            000000000000000000000000000000000000000000000000000000000000
            000000000000000000000000000000000000000000000000000000000000
            000000000000000000000000000000000000000000000000000000000000
            000000000000000000000000000000000000000000000000000000000000
            000000000000000000000000000000000000000000000000000000000000
            000000000000000000000000000000000000000000000000000000000000
            000000000000000000000000000000000000000000000000000000000000
            000000000000000000000000000000000000000000000000000000000000
            000000000000000000000000000000000000000000000000000000000000
            000000000000000000000000000000000000000000000000000000000000
            000000000000000000000000000000000000000000000000000000000000
            000000000000000000000000000000000000000000000000000000000000
            000000000000000000000000000000000000000000000000000000000000
            000000000000000000000000000000000000000000000000000000000000
            000000000000000000000000000000000000000000000000000000000000
            000000000000000000000000000000000000000000000000000000000000
            000000000000000000000000000000000000000000000000000000000000
            000000000000000000000000000000000000000000000000000000000000
            000000000000000000000000000000000000000000000000000000000000
            000000000000000000000000000000000000000000000000000000000000
            000000000000000000000000000000000000000000000000000000000000
            000000000000000000000000000000000000000000000000000000000000
            000000000000000000000000000000000000000000000000000000000000
            000000000000000000000000000000000000000000000000000000000000
            000000000000000000000000000000000000000000000000000000000000
            000000000000000000000000000000000000000000000000000000000000
            000000000000000000000000000000000000000000000000000000000000
            000000000000000000000000000000000000000000000000000000000000
            000000000000000000000000000000000000000000000000000000000000
            000000000000000000000000000000000000000000000000000000000000
            000000000000000000000000000000000000000000000000000000000000
            000000000000000000000000000000000000000000000000000000000000
            000000000000000000000000000000000000000000000000000000000000
            000000000000000000000000000000000000000000000000000000000000
            000000000000000000000000000000000000000000000000000000000000
            000000000000000000000000000000000000000000000000000000000000
            000000000000000000000000000000000000000000000000000000000000
            000000000000000000000000000000000000000000000000000000000000
            000000000000000000000000000000000000000000000000000000000000
            000000000000000000000000000000000000000000000000000000000000
            000000000000000000000000000000000000000000000000000000000000
            000000000000000000000000000000000000ff3f0c32ff3f0c42ff3f0c52
            010000200000000000000000000000000000000000000000000000000000
            000000000000000000000000000000000000000000000000000000000000
            000000000000000000000000000000000000000000000000000000000000
            000000000000000000000000000000000000000000000000000000000000
            000000000000000000000000ff3f0c62ff3f0c72000006c0010000000002
            02b000000000020006c004040404020200b048a00003020006c000000700
            020200b04ca10003000006c000000000030000e000000000
            <crc>
                433d
            </crc>
        </region>
    </nvm>
</Actel_Data_File>
